Lambda Stress[kPa]
1	0.031844861
1.001404845	0.015333195
1.003023008	0.021341621
1.004523846	0.025084256
1.006047539	0.035001105
1.007284778	0.043409158
1.008808472	0.051240416
1.010665854	0.060007707
1.012070699	0.066736717
1.013356697	0.071593494
1.015070852	0.078992522
1.016404083	0.084682893
1.017856163	0.088514027
1.01923663	0.093275557
1.020498248	0.09989762
1.02204632	0.108339448
1.023570014	0.115685604
1.025044949	0.122693879
1.026308091	0.129288676
1.027783026	0.135478344
1.028925796	0.140255213
1.030426634	0.149107663
1.032021941	0.158969596
1.033425263	0.16543146
1.035044949	0.173501593
1.036544263	0.180511486
1.037711412	0.186730532
1.039163492	0.194019589
1.040662807	0.200836179
1.04211641	0.207798918
1.043544111	0.214392651
1.044901722	0.220790552
1.046425415	0.228243245
1.047971964	0.234807866
1.049520037	0.242413645
1.050947737	0.250997949
1.052258114	0.257508205
1.053734573	0.263856921
1.055162273	0.274485409
1.056401036	0.281392661
1.057853116	0.290762408
1.059328051	0.297402622
1.060757276	0.305040607
1.062090507	0.313288613
1.063542587	0.320671506
1.064804205	0.331471985
1.066256285	0.338620179
1.06768551	0.348010339
1.069041597	0.357823278
1.070399208	0.364892107
1.071994515	0.375404616
1.073899131	0.387974344
1.075398446	0.397094327
1.076756057	0.407461875
1.078136523	0.41893808
1.079660216	0.432822194
1.081017827	0.444324507
1.082588755	0.452053632
1.083803139	0.460807487
1.085255219	0.47123462
1.086850526	0.483310118
1.088302606	0.496028567
1.08980192	0.502939668
1.091349992	0.512117735
1.092588755	0.524439856
1.093969221	0.540391606
1.09523084	0.548596973
1.096707298	0.562435538
1.097897303	0.572270792
1.099705927	0.583482365
1.101135152	0.598780762
1.10239677	0.610869262
1.103967698	0.623717526
1.105491391	0.634007608
1.106943471	0.64985116
1.108206613	0.657462839
1.109658693	0.670612095
1.111086393	0.680681218
1.112800549	0.696954801
1.114229773	0.709033223
1.115372543	0.719440988
1.116943471	0.735285538
1.11811062	0.745550003
1.119609934	0.763406086
1.121467317	0.782347178
1.123013866	0.797278709
1.124324242	0.810103724
1.125776322	0.825921408
1.127513332	0.846739887
1.128846564	0.859187994
1.130275789	0.877328505
1.131727868	0.893249801
1.132942252	0.905264709
1.134322718	0.921423091
1.135774798	0.937905571
1.137441719	0.957716742
1.13877495	0.977071449
1.140108182	0.990648421
1.141298187	1.002533786
1.142917873	1.023048926
1.144417187	1.045650001
1.145846412	1.065282096
1.14710803	1.083572125
1.148916654	1.106060308
1.150083803	1.126286423
1.151631876	1.144823128
1.153106811	1.165420571
1.154488801	1.187392848
1.156202956	1.210571695
1.157345726	1.227370474
1.158749048	1.24632113
1.160368734	1.275994878
1.161939662	1.301371177
1.163320128	1.322512485
1.164915435	1.342221389
1.166416273	1.37212343
1.167725126	1.399391682
1.169439281	1.433433427
1.170725278	1.448191862
1.172248972	1.483904036
1.17379552	1.512541856
1.175558434	1.543291314
1.176963279	1.569126878
1.178224897	1.591662844
1.179820204	1.628372484
1.181485601	1.662948714
1.182843212	1.688444412
1.184270913	1.720347781
1.185509675	1.746386317
1.187057748	1.780930222
1.188509828	1.80959847
1.190199604	1.846944146
1.191557215	1.882656312
1.193128143	1.919037364
1.19472345	1.954215747
1.19615115	1.985199387
1.197627609	2.030124477
1.199222916	2.072104233
1.20074661	2.113347667
1.202055462	2.145111601
1.203388694	2.187996584
1.204746305	2.228325406
1.20615115	2.265411995
1.207555996	2.308056056
1.209151303	2.344351485
1.210554624	2.388810516
1.211840622	2.433023711
1.213269846	2.478069848
1.21476916	2.520611569
1.216149627	2.567980216
1.217507238	2.614387165
1.218959317	2.662300682
1.220673472	2.718304242
1.222006704	2.757947399
1.223530398	2.811504682
1.225172939	2.879807717
1.226673777	2.924526004
1.228101478	2.970446849
1.229340241	3.025576258
1.230815176	3.077247431
1.232316014	3.133765843
1.233649246	3.190126638
1.234982478	3.228075156
1.236481792	3.288540734
1.238195947	3.35716872
1.239553558	3.409147848
1.240934024	3.461259112
1.242242877	3.529965157
1.244124638	3.602332021
1.245529483	3.656217046
1.247219259	3.717386262
1.24864696	3.786302978
1.249814109	3.843875782
1.25148103	3.914565829
1.252957489	3.973167943
1.254409569	4.04433417
1.255884504	4.10500503
1.257408197	4.17543869
1.258599726	4.232369111
1.260074661	4.288785809
1.261647113	4.371081415
1.263598964	4.471122818
1.264694499	4.512475679
1.266265427	4.579000205
1.268194423	4.684940572
1.269646503	4.755524197
1.271074204	4.815618085
1.27245467	4.89272444
1.273740667	4.956601992
1.275026665	5.02266005
1.276597593	5.108377247
1.27816852	5.176301709
1.279526131	5.238783397
1.280716136	5.320435566
1.282288588	5.36138166
1.28390675	5.439665581
1.285287216	5.507173711
1.2865016	5.572939538
1.287978059	5.645664451
1.289358525	5.727575706
1.29076337	5.797780764
1.292120981	5.861527294
1.293644675	5.967849779
1.295215603	6.054215828
1.297024227	6.156812052
1.298310224	6.232443214
1.299762304	6.315942906
1.301334755	6.391215813
1.302952918	6.499939747
1.304310529	6.545733392
1.305500533	6.621637645
1.307143075	6.727101014
1.30854792	6.815956586
1.310071614	6.891762389
1.311595307	6.993379396
1.313071766	7.068562058
1.31428615	7.137816468
1.31571385	7.23000598
1.316928234	7.297288546
1.318595155	7.389097984
1.319975621	7.499089772
1.321523693	7.577907799
1.322927015	7.648978497
1.324190157	7.733625296
1.325689471	7.830595057
1.327284778	7.930956408
1.328855706	8.048228691
1.330188938	8.109159306
1.331688252	8.206578529
1.333332318	8.324310637
1.334593936	8.405502438
1.336046016	8.481728601
1.337498095	8.6073258
1.338974554	8.704323163
1.340473869	8.803248793
1.341782721	8.885071661
1.343211946	8.963695269
1.344639647	9.029070477
1.34585403	9.070262106
1.347283255	9.133179222
1.348544873	9.197758049
1.349996953	9.23388027
1.351235715	9.27846842
1.352687795	9.332727581
1.35416273	9.393895953
1.35554472	9.479651648
1.3569968	9.573440417
1.358401646	9.691388924
1.360281883	9.803846498
1.361829956	9.883584287
1.363353649	9.976116318
1.364734115	10.07664798
1.366138961	10.14592539
1.367566662	10.25021431
1.369114734	10.34725317
1.370566814	10.44188153
1.3721865	10.5651196
1.373589822	10.64259053
1.375137894	10.72761754
1.376733201	10.81921782
1.378256895	10.91900854
1.379684595	11.01460123
1.380947737	11.10661024
1.382471431	11.20991269
1.383946366	11.32276831
1.385351211	11.40538247
1.386993753	11.48867906
1.388494591	11.62529152
1.389875057	11.73019273
1.391564833	11.84060874
1.393016913	11.93749846
1.394327289	12.03881494
1.395779369	12.14861
1.397255828	12.301191
1.39858906	12.36130813
1.399969526	12.45672528
1.401255523	12.59251633
1.402683224	12.69972414
1.404135304	12.82297057
1.405683377	12.90336674
1.407254304	13.03896326
1.408802377	13.1367224
1.410254457	13.2794788
1.411753771	13.34033194
1.412873686	13.41752137
1.414587841	13.59405205
1.416039921	13.69759296
1.41751638	13.79830121
1.418919701	13.93030143
1.420230078	14.04587817
1.421944233	14.18926114
1.423158616	14.31973527
1.424657931	14.37511741
1.426087155	14.49635715
1.427371629	14.63804073
1.428895322	14.7595029
1.430228554	14.8490332
1.43153893	14.96310742
1.433181472	15.117653
1.434680786	15.2452872
1.436085632	15.38278086
1.437324394	15.43594562
1.438752095	15.60767474
1.439966479	15.72581629
1.441514551	15.86587137
1.442989487	15.94900507
1.444465945	16.08390938
1.446394941	16.2832345
1.448013104	16.43046236
1.449370715	16.5269948
1.450966022	16.6690676
1.452489715	16.79427192
1.453917416	16.95177098
1.455250648	17.04919344
1.456751486	17.15135447
1.457964346	17.34336792
1.459369191	17.48032228
1.460917263	17.61656087
1.462655798	17.76317204
1.463893037	17.90895808
1.465369496	18.05226316
1.466725583	18.22935176
1.468202042	18.31230219
1.469631266	18.41094685
1.47115496	18.62222503
1.472629895	18.75086785
1.473893037	18.84575813
1.47541673	18.99608052
1.476678348	19.12579561
1.478368124	19.27959047
1.479629742	19.44256107
1.481106201	19.54339116
1.48258266	19.65415317
1.484057596	19.86503864
1.485390827	19.99728042
1.487104982	20.12018354
1.48839098	20.26052327
1.489748591	20.39578695
1.491343898	20.53223159
1.492533902	20.69079955
1.494033217	20.75765994
1.495534055	20.89242085
1.496676825	21.07987027
1.498176139	21.19795537
1.499414902	21.27164279
1.500938595	21.39150935
1.502247448	21.55683553
1.503723907	21.73360063
1.505104373	21.87716879
1.506509218	21.96930671
1.507770837	22.08107166
1.50960384	22.31942303
1.511223526	22.45413442
1.512507999	22.56026566
1.513889989	22.69497564
1.515532531	22.90699163
1.517269541	23.08309887
1.518721621	23.27529871
1.52019808	23.38734751
1.521555691	23.56094028
1.522983392	23.75277271
1.524865153	23.94029147
1.526292854	24.07315697
1.527531617	24.26917181
1.529078165	24.45276176
1.530650617	24.62913893
1.532102697	24.78797197
1.533649246	24.95738027
1.535244553	25.15778168
1.536815481	25.30616067
1.538173092	25.44612182
1.539672406	25.62718269
1.541126009	25.79728292
1.542600945	26.0031243
1.543911321	26.17422945
1.545363401	26.27435008
1.546577785	26.45079787
1.548077099	26.64339082
1.549410331	26.80792762
1.550767941	26.92533532
1.552242877	27.08850283
1.553506019	27.26632708
1.555005333	27.46739577
1.556813957	27.67025537
1.558218802	27.80269186
1.559552034	27.99204601
1.561075728	28.19225409
1.563004723	28.43634084
1.564481182	28.57069324
1.565599573	28.76570502
1.56750419	29.00464381
1.568742953	29.16197375
1.570266646	29.33679278
1.571837574	29.55514036
1.573289654	29.7175169
1.574788968	29.9686893
1.57643151	30.12636483
1.577836355	30.28760306
1.579360049	30.53934048
1.5809325	30.73636729
1.582431815	30.90485666
1.583883895	31.07684358
1.585407588	31.29026175
1.586859668	31.48504919
1.588311748	31.71893399
1.589693738	31.82128261
1.591097059	32.04910783
1.59276398	32.3002258
1.594240439	32.53233452
1.595692519	32.68512487
1.597001371	32.90657486
1.598406217	33.0897076
1.599978668	33.37155764
1.601596831	33.53616965
1.602977297	33.6920099
1.604453756	33.93835576
1.606096297	34.15760688
1.607619991	34.3334851
1.609000457	34.50935176
1.610263599	34.7105787
1.611738534	34.97209201
1.613214993	35.20779325
1.614763066	35.36005965
1.615905836	35.54111944
1.617501143	35.84620099
1.619024836	36.07206513
1.620595764	36.43834178
1.62197623	36.67364499
1.623571537	36.92740344
1.625047996	37.21925716
1.626522932	37.50467877
1.627786073	37.62491583
1.629285388	37.90658658
1.630737468	38.24825818
1.632095078	38.46177165
1.633499924	38.66528831
1.634927625	38.90822751
1.636213622	39.11903791
1.637665702	39.41765737
1.639093402	39.65242506
1.640665854	39.82760416
1.642165168	40.0539965
1.643688862	40.31871166
1.645022094	40.45088451
1.64640256	40.57625346
1.64785464	40.8178595
1.649117782	41.01497028
1.650926406	41.32314514
1.65211641	41.50333605
1.653688862	41.69131594
1.654997714	41.93778042
1.656306567	42.20280005
1.657807405	42.43288027
1.659044644	42.57977568
1.660783178	42.86389978
1.662306872	43.0534436
1.663949413	43.28989725
1.665186652	43.42844614
1.666615877	43.59384788
1.667758647	43.74275519
1.669306719	43.98698108
1.670900503	44.14971655
1.672282493	44.31400589
1.673425263	44.49072799
1.674971812	44.69227558
1.676519884	44.91176411
1.677947585	45.09531847
1.679542892	45.25818372
1.680710041	45.43213578
1.682258114	45.63758668
1.683829042	45.80468274
1.685209508	45.93536604
1.686399512	46.09492887
1.68790035	46.29437457
1.689184824	46.47649332
1.690518056	46.60924923
1.692041749	46.78374596
1.693352126	46.93504573
1.694875819	47.1107151
1.696352278	47.25805275
1.697851592	47.3864494
1.699375286	47.60535959
1.700898979	47.78030264
1.702469907	47.9479135
1.703970745	48.24589173
1.705255219	48.78114036
1.706612829	49.22267776
1.708136523	49.5145569
1.709541368	49.62351177
1.710850221	49.78291465
1.712230687	49.95424779
1.713541064	50.09057484
1.714968764	50.22592534
1.716445223	50.36506531
1.717635228	50.53986299
1.719445376	50.7455227
1.720850221	50.84951677
1.722302301	50.91478795
1.723611153	51.0487187
1.72520646	51.20730492
1.726396465	51.31056627
1.728206613	51.44321291
1.729468231	51.55033969
1.730873076	51.76865504
1.732491239	52.19716444
1.733730002	52.4869937
1.735086089	52.71606706
1.736634161	53.01379813
1.738182234	53.23459073
1.739587079	53.39265062
1.740943166	53.57374303
1.742419625	53.81084313
1.743896084	53.92557689
1.745180558	54.08085648
1.746966326	54.32240224
1.748418406	54.4880098
1.749966479	54.83379179
1.751205242	55.1101561
1.752799025	55.6615821
1.754252628	56.29012599
1.755680329	56.84963882
1.757322871	57.31069822
1.75877495	57.71878404
1.760204175	58.22925802
1.761560262	58.65988588
1.763323175	59.09938525
1.764703642	59.44557942
1.766131342	59.74065374
1.767584946	60.11310632
1.769012647	60.54731086
1.770964498	60.81009452
1.772488191	61.15505143
1.773940271	61.54062096
1.775226268	61.78123271
1.776631114	61.9591885
1.77801158	62.23370605
1.77939357	62.49416809
1.78084565	62.66278743
1.782369343	62.81264241
1.783915892	62.91612631
1.785392351	63.0743875
1.786631114	63.20293102
1.788083194	63.33464982
1.789606887	63.47183706
1.791130581	63.67707172
1.792392199	63.78483649
1.793987506	63.90977238
1.795320737	64.02269501
1.796916044	64.14016805
1.798224897	64.28181729
1.799558129	64.45098648
1.801034588	64.57859429
1.802605516	64.80686074
1.803701051	64.97910979
1.805415206	65.11816442
1.806771294	65.27041324
1.808272132	65.39365367
1.809986287	65.53177798
1.811391132	65.73810987
1.812747219	65.86143504
1.814389761	66.02147718
1.815890599	66.17749957
1.817056224	66.29616621
1.818579918	66.44393108
1.820031998	66.59061032
1.821389608	66.70954409
1.823150998	66.95016163
1.824318147	67.04429811
1.825770227	67.17295467
1.827269541	67.2997112
1.828793235	67.48410423
1.830316928	67.62687129
1.83165016	67.77427183
1.833055005	68.0723978
1.834603078	68.30282299
1.836079537	68.61573457
1.837554472	68.97636651
1.839126924	69.28414562
1.840388542	69.42133694
1.842078318	69.88486022
1.84341155	70.12858794
1.844816395	70.39615857
1.846340088	70.61534587
1.847554472	70.80901304
1.849053786	71.03283586
1.850554624	71.39040078
1.85202956	71.57897268
1.853387171	71.75188514
1.854935243	72.01270209
1.85629133	72.26941547
1.857792168	72.46539928
1.859672406	72.72105313
1.86117172	72.93821573
1.862625324	73.10909018
1.863909797	73.29564003
1.865719945	73.49469842
1.867362487	73.69076399
1.868790187	73.8599758
1.870053329	74.00649358
1.871577023	74.19663975
1.873029103	74.48135366
1.874481182	74.67014809
1.875814414	74.91106617
1.877123267	75.11073038
1.878456499	75.28598971
1.879908578	75.63485837
1.881360658	75.99119854
1.882646655	76.25122977
1.884098735	76.43493996
1.885694042	76.81414766
1.88726497	77.14654234
1.88864696	77.43353359
1.889955813	77.62225057
1.891360658	77.85579662
1.892908731	78.1901579
1.894408045	78.52198985
1.895884504	78.73735573
1.897240591	78.99653079
1.898692671	79.31349696
1.900050282	79.58723612
1.901573975	79.83007718
1.903097669	80.07106374
1.904574128	80.36261872
1.905978973	80.76129321
1.90733506	81.03159127
1.908883133	81.29616694
1.910382447	81.62703597
1.911596831	81.94576244
1.913167759	82.31424619
1.914572604	82.66701314
1.916024684	82.93355658
1.917382295	83.26723759
1.918811519	83.59867588
1.920263599	83.95907697
1.921810148	84.26908588
1.922977297	84.64529835
1.924453756	85.04696696
1.925715374	85.40878651
1.92709584	85.73697359
1.928429072	86.05413175
1.929833917	86.40952441
1.931572452	86.83566256
1.932881304	87.22671583
1.93428615	87.51222328
1.935881457	87.88407329
1.937190309	88.30321434
1.938499162	88.61674911
1.939762304	89.0112351
1.941261618	89.37062578
1.942785312	89.83079405
1.94435624	90.19861568
1.945785464	90.70601956
1.947094317	91.03908385
1.948546396	91.32763241
1.949998476	91.87387052
1.951618162	92.33662599
1.953045863	92.70317253
1.954593936	93.13501162
1.956260856	93.64329793
1.957665702	94.01206045
1.959046168	94.50661911
1.960355021	94.75642057
1.9618071	95.15443303
1.963307938	95.62015719
1.964545178	96.03685259
1.965902788	96.32475186
1.96723602	96.73549431
1.968663721	97.14497923
1.970187414	97.53239996
1.971401798	98.01378299
1.972806643	98.32605497
1.974092641	98.62007184
1.975569099	99.04932646
1.9769968	99.44939522
1.978235563	99.81403237
1.980044187	100.3161831
1.981234192	100.5776469
1.982829499	100.9628225
1.984281579	101.4368629
1.98616334	101.8046319
1.987734268	102.1922032
1.989161969	102.6642034
1.990353497	103.0117991
1.991852811	103.2711764
1.993472497	103.8415064
1.995137894	104.228007
1.996471126	104.5719554
1.997971964	104.9835781
1.999637361	105.4607822
2.001066585	105.896651
2.0025659	106.3765553
2.004161207	106.7654954
2.00599421	107.3353818
2.007114125	107.5558459
2.008709432	108.1600042
2.010493677	108.6910823
2.011732439	109.0620811
2.013280512	109.4585765
2.014827061	110.0439012
2.016207527	110.4920079
2.017827213	110.9109039
2.019707451	111.5874537
2.020898979	112.0502752
2.022351059	112.4743665
2.023850373	112.9933305
2.025470059	113.5064827
2.02689776	113.9978251
2.028493067	114.5993413
2.030016761	114.9796118
2.031683681	115.540028
2.033088527	115.9456974
2.034563462	116.4662334
2.036111534	116.971279
2.037610849	117.4359899
2.0391833	117.8960136
2.04063538	118.5221237
2.042110315	118.8990758
2.043515161	119.2532693
2.045229316	119.9709634
2.046705775	120.4142282
2.048039007	120.8037022
2.0495627	121.303329
2.050943166	121.7112712
2.052753314	122.2699941
2.053967698	122.8529944
2.055514247	123.1789885
2.057109554	123.7657059
2.058704861	124.3852463
